log Ni_mass,log Peak_Flux_(erg/s),log Peak_Flux_(erg/s)_lower_limit,log Peak_Flux_(erg/s)_upper_limit
-inf,,,
-2.853437452547744,41.03522626798716,40.98946877742649,41.149169620293996
-2.552407456883763,41.26104491360029,41.21528742303961,41.37498826590712
-2.376316197828082,41.39314035324761,41.347382862686935,41.50708370555444
-2.251377461219782,41.48686355921341,41.441106068652736,41.600806911520245
-2.1544674482117254,41.55956092558569,41.51380343502502,41.673504277892526
-2.0752862021641008,41.618958998860734,41.57320150830006,41.73290235116757
-2.0083394125334877,41.66917935424155,41.623421863680875,41.78312270654838
-1.9503474655558006,41.712682204826535,41.66692471426586,41.82662555713337
-1.8991949431084194,41.75105443850805,41.705296947947375,41.86499779081488
-1.8534374525477444,41.78537957119882,41.73962208063814,41.89932292350565
-1.8120447673895193,41.81643043069906,41.77067294013838,41.93037378300589
-1.7742562065001195,41.84477764447386,41.79902015391318,41.95872099678069
-1.7394941002409077,41.8708545533108,41.825097062750125,41.98479790561763
-1.7073094168695062,41.894997999854674,41.849240509294,42.00894135216151
-1.677346193492063,41.91747501084613,41.87171752028546,42.031418363152966
-1.6493174698918196,41.93850085043967,41.89274335987899,42.0524442027465
-1.6229885311694703,41.958251590792294,41.91249410023162,42.07219494309913
-1.5981649474444382,41.97687308412117,41.9311155935605,42.09081643642801
-1.5746838515949153,41.99448750573573,41.94873001517505,42.10843085804256
-1.5524074568837631,42.01119821681194,41.965440726251266,42.125141569118774
-1.531218157813825,42.027093439501996,41.98133594894132,42.14103679180883
-1.511014771725538,42.04224907631218,41.99649158575151,42.156192428619015
-1.4917096165301513,42.05673090225102,42.010973411690344,42.17067425455785
-1.4732262108361383,42.07059629008698,42.02483879952631,42.184539642393815
-1.4554974438757067,42.083895583184216,42.03813809262354,42.19783893549105
-1.4384641045769264,42.096673198923924,42.05091570836325,42.21061655123076
-1.422073688388757,42.108968523768496,42.06321103320782,42.22291187607533
-1.4062794212055252,42.1208166454678,42.07505915490712,42.23475999777463
-1.3910394546487883,42.13224895672117,42.086491466160496,42.246192309028004
-1.3763161978280818,42.14329365645926,42.09753616589858,42.25723700876609
-1.3620757587134715,42.15397616890027,42.1082186783396,42.267919521207105
-1.3482874742278383,42.16431949605279,42.118562005492116,42.278262848359624
-1.3349235126698569,42.174344515959504,42.12858702539883,42.28828786826634
-1.3219585355054893,42.18407023640542,42.13831274584474,42.29801358871225
-1.3093694081974687,42.19351401184008,42.147756521279405,42.30745736414691
-1.2971349517804571,42.2026917297343,42.15693423917362,42.31663508204113
-1.2852357284807494,42.211617971398226,42.16586048083755,42.32556132370506
-1.273653855930934,42.22030615134885,42.174548660788176,42.334249503655684
-1.262372845521245,42.22876863857124,42.183011148010564,42.34271199087807
-1.2513774612197819,42.237016862425065,42.19125937186439,42.3509602147319
-1.240653595828009,42.2450614054719,42.199303914911226,42.359004757778735
-1.2301881621498438,42.25291208511512,42.207154594554446,42.366855437421954
-1.2199689969681577,42.26057802563223,42.21482053507155,42.37452137793906
-1.209984776061557,42.268067721925306,42.22231023136463,42.38201107423214
-1.2002249387724007,42.27538909610658,42.229631605545904,42.38933244841341
-1.1906796208661703,42.28254954786414,42.23679205730347,42.396492900170976
-1.1813395946120269,42.28955599941077,42.2437985088501,42.403499351717606
-1.1721962151721572,42.296414935700106,42.25065744513943,42.41035828800694
-1.1632413725192305,42.303132440495936,42.25737494993526,42.41707579280277
-1.1544674482117256,42.30971422879735,42.26395673823667,42.42365758110418
-1.145867276449808,42.316165676052734,42.27040818549206,42.43010902835957
-1.1374341089129452,42.32249184453705,42.27673435397637,42.43643519684388
-1.1291615829469552,42.32869750721634,42.282940016655665,42.44264085952317
-1.1210436927247758,42.33478716938162,42.289029678820945,42.448730521688454
-1.1130747630535005,42.34076508829759,42.29500759773691,42.45470844060442
-1.105249425541544,42.34663529108093,42.300877800520254,42.46057864338776
-1.097562596875253,42.352401590996166,42.30664410043549,42.466344943303
-1.090009458984807,42.358067602334295,42.31231011177362,42.47201095464113
-1.0825854409056002,42.36363675401952,42.31787926345884,42.47758010632635
-1.0752862021641008,42.36911230207238,42.323354811511706,42.483055654379214
-1.0681076175369772,42.374497341042805,42.32873985048213,42.48844069334964
-1.0610457630494905,42.379794814513396,42.33403732395272,42.49373816682023
-1.0540969030941625,42.385007524762436,42.33925003420176,42.49895087706927
-1.047257478563857,42.390138141665915,42.34438065110524,42.50408149397275
-1.0405240959048887,42.39518921090933,42.349431720348655,42.50913256321616
-1.0338935170058756,42.40016316157263,42.35440567101195,42.51410651387946
-1.027362649846918,42.405062313144754,42.35930482258408,42.51900566545159
-1.020928539841508,42.40988888201854,42.36413139145787,42.523832234325376
-1.014588361810489,42.41464498751146,42.368887496950784,42.52858833981829
-1.0083394125334875,42.419332657453204,42.37357516689253,42.53327600976004
-1.0021791038286691,42.42395383337693,42.37819634281625,42.53789718568376
-0.9961049561164759,42.42851037534742,42.38275288478675,42.542453727654255
-0.9901145924272884,42.433004066456306,42.38724657589563,42.54694741876314
-0.9842057328167682,42.43743661701135,42.391679126450676,42.551379969318184
-0.9783761891560443,42.44180966844466,42.39605217788399,42.555753020751496
-0.9726238602669529,42.446124796961975,42.4003673064013,42.56006814926881
-0.9669467273752624,42.450383516953444,42.40462602639277,42.56432686926028
-0.9613428498572639,42.45458728418436,42.40882979362369,42.5685306364912
-0.9558103612573029,42.45873749878261,42.412980008221936,42.572680851089444
-0.9503474655558007,42.46283550803819,42.417078017477515,42.57677886034502
-0.9449524336690945,42.466882609028936,42.42112511846826,42.58082596133577
-0.9396236001640277,42.470880051085025,42.42512256052435,42.58482340339186
-0.9343593601716704,42.47482903810419,42.429071547543515,42.58877239041102
-0.9291581664858627,42.478730730728245,42.43297324016757,42.59267408303508
-0.9240185268334515,42.48258624839082,42.43682875783014,42.59652960069765
-0.9189390013041766,42.48639667124535,42.44063918068468,42.600340023552185
-0.9139181999291258,42.49016304198162,42.44440555142094,42.60410639428845
-0.9089547803975757,42.49388636753843,42.448128876977755,42.60782971984526
-0.9040474459028315,42.49756762071963,42.451810130158954,42.61151097302646
-0.8991949431084194,42.5012077417197,42.45545025115903,42.61515109402654
-0.8943960602266507,42.504807639565186,42.45905014900451,42.61875099187202
-0.889649625202189,42.50836819347727,42.46261070291659,42.6223115457841
-0.8849545039938093,42.51189025416071,42.46613276360004,42.625833606467545
-0.8803095989480456,42.5153746450239,42.46961715446322,42.62931799733073
-0.8757138472588966,42.51882216333425,42.473064672773575,42.63276551564108
-0.871166219508176,42.52223358131323,42.476476090752556,42.636176933620064
-0.8666657182814995,42.52560964717453,42.47985215661385,42.63955299948136
-0.8622113768552494,42.52895108610906,42.483193595548386,42.642894438415894
-0.8578022579501944,42.532258601219944,42.48650111065927,42.64620195352678
-0.8534374525477444,42.53553287441047,42.489775383849796,42.649476226717304
-0.8491160787651018,42.53877456722793,42.49301707666726,42.652717919534766
-0.8448372807858268,42.54198432166586,42.49622683110518,42.65592767397269
-0.840600227842572,42.54516276092712,42.499405270366445,42.65910611323395
-0.836404113248964,42.54831049015017,42.5025529995895,42.662253842457005
-0.8322481534778062,42.55142809710052,42.505670606539844,42.66537144940735
-0.8281315872829741,42.554516152829464,42.50875866226879,42.6684595051363
-0.8240536748625347,42.55757521230186,42.51181772174119,42.6715185646087
-0.8200136970607946,42.560605814994744,42.51484832443407,42.67454916730158
-0.8160109546071207,42.56360848546827,42.5178509949076,42.677551837775106
-0.8120447673895193,42.56658373391071,42.52082624335004,42.680527086217545
-0.8081144737610868,42.56953205665867,42.523774566098,42.683475408965506
-0.8042194298775627,42.57245393669405,42.52669644613338,42.68639728900089
-0.8003590090643246,42.57534984411889,42.529592353558215,42.68929319642572
-0.7965326012112717,42.57822023660929,42.532462746048616,42.692163588916124
-0.7927396121941327,42.58106555984954,42.53530806928887,42.695008912156375
-0.7889794633208258,42.58388624794742,42.538128757386744,42.69782960025425
-0.7852515908015827,42.586682723831686,42.54092523327101,42.70062607613852
-0.7815554452416189,42.58945539963264,42.543697909071966,42.703398751939474
-0.7778904911552136,42.59220467704668,42.546447186486006,42.706148029353514
-0.7742562065001195,42.594930947685505,42.54917345712483,42.70887429999234
-0.7706520822312942,42.59763459341095,42.55187710285028,42.711577945717785
-0.7670776218729961,42.60031598665593,42.554558496095254,42.71425933896276
-0.7635323411083464,42.60297549073234,42.557218000171666,42.716918843039174
-0.7600157673855092,42.60561346012652,42.559855969565845,42.71955681243335
-0.7565274395396879,42.608230240782746,42.56247275022207,42.72217359308958
-0.7530669074301813,42.61082617037556,42.565068679814885,42.724769522682394
-0.7496337315917875,42.61340157857124,42.56764408801057,42.727344930878076
-0.746227482899876,42.61595678727904,42.570199296718364,42.72990013958587
-0.7428477422484954,42.61849211089267,42.57273462033199,42.7324354631995
-0.7394941002409076,42.62100785652245,42.57525036596178,42.73495120882929
-0.7361661568919801,42.62350432421855,42.577746833657876,42.737447676525385
-0.7328635213418945,42.62598180718575,42.58022431662508,42.739925159492586
-0.7295858115806585,42.62844059199011,42.58268310142944,42.74238394429695
-0.7263326541829367,42.63088095875788,42.5851234681972,42.74482431106471
-0.7231036840527382,42.63330318136702,42.587545690806344,42.74724653367385
-0.7198985441775267,42.635707527631666,42.58995003707099,42.7496508799385
-0.7167168853913375,42.638094259479814,42.59233676891914,42.75203761178665
-0.7135583661465078,42.64046363312458,42.59470614256391,42.754406985431416
-0.7104226522936492,42.642815899229234,42.59705840866856,42.75675925153607
-0.7073094168695063,42.64515130306633,42.59939381250565,42.75909465537316
-0.7042183398923644,42.64747008467121,42.60171259411054,42.761413436978046
-0.7011491081646879,42.64977247899005,42.60401498842938,42.763715831296885
-0.6981014150826825,42.652058716022694,42.60630122546202,42.76600206832953
-0.6950749604524946,42.654329020960546,42.60857153039987,42.76827237326738
-0.6920694503127695,42.6565836143197,42.610826123759026,42.770526966626534
-0.6890845967633072,42.65882271206943,42.613065221508755,42.77276606437626
-0.6861201177995682,42.66104652575638,42.61528903519571,42.77498987806322
-0.6831757371527869,42.663255262624475,42.6174977720638,42.77719861493131
-0.6802511841354703,42.66544912573084,42.61969163517016,42.77939247803767
-0.677346193492063,42.66762831405779,42.62187082349711,42.78157166636462
-0.6744605052545749,42.66979302262118,42.6240355320605,42.78373637492801
-0.6715938646029718,42.6719434425751,42.626185952014424,42.78588679488193
-0.6687460217301455,42.67407976131317,42.6283222707525,42.78802311362001
-0.6659167317112813,42.67620216256657,42.63044467200589,42.7901455148734
-0.6631057543774528,42.678310826498794,42.63255333593812,42.79225417880563
-0.6603128541932827,42.68040592979749,42.63464843923681,42.79434928210432
-0.6575378001385106,42.68248764576327,42.63673015520259,42.7964309980701
-0.6547803655933216,42.684556144395735,42.63879865383506,42.79849949670257
-0.6520403282272929,42.68661159247678,42.640854101916105,42.80055494478361
-0.6493174698918195,42.68865415365131,42.64289666309064,42.80259750595815
-0.6466115765158946,42.690683988505405,42.64492649794473,42.80462734081224
-0.6439224380051134,42.69270125464206,42.646943764081385,42.80664460694889
-0.6412498481437865,42.694706106754666,42.64894861619399,42.8086494590615
-0.6385936045000464,42.69669869669815,42.650941206137475,42.81064204900498
-0.635953508333838,42.69867917355803,42.65292168299735,42.81262252586486
-0.6333293645076892,42.700647683717314,42.65489019315664,42.81459103602415
-0.630720981400161,42.70260437092147,42.656846880360796,42.816547723228304
-0.6281281708218814,42.70454937634137,42.658791885780694,42.8184927286482
-0.6255507479340707,42.706482838634436,42.66072534807376,42.82042619094127
-0.6229885311694704,42.70840489400394,42.662647403443266,42.822348246310774
-0.6204413421555904,42.710315676256606,42.66455818569593,42.82425902856344
-0.6179090056401955,42.712215316858476,42.6664578262978,42.82615866916531
-0.6153913494189489,42.7141039449892,42.66834645442852,42.82804729729603
-0.6128882042651446,42.71598168759474,42.67022419703407,42.829925039901575
-0.6103994038614499,42.71784866943861,42.672091178877935,42.83179202174544
-0.6079247847335945,42.71970501315156,42.673947522590886,42.833648365458394
-0.6054641861859377,42.72155083927996,42.67579334871929,42.8354941915868
-0.6030174502388503,42.72338626633275,42.67762877577208,42.837329618639586
-0.6005844215678511,42.725211410827114,42.67945392026644,42.83915476313395
-0.5981649474444383,42.72702638733283,42.68126889677215,42.84096973963966
-0.5957588776785598,42.72883130851546,42.683073817954785,42.84277466082229
-0.5933660645626695,42.73062628517831,42.684868794617636,42.844569637485144
-0.5909863628173149,42.732411426303244,42.68665393574257,42.84635477861008
-0.5886196295382078,42.73418683909039,42.688429348529716,42.848130191397225
-0.5862657241447305,42.735952628996756,42.69019513843608,42.84989598130359
-0.583924508329828,42.737708899773835,42.69195140921316,42.85165225208067
-0.5815958460112454,42.73945575350419,42.693698262943514,42.85339910581102
-0.5792796032840645,42.74119329063702,42.695435800076346,42.855136642943854
-0.5769756483745002,42.74292161002288,42.69716411946221,42.856864962329716
-0.5746838515949153,42.74464080894737,42.6988833183867,42.85858416125421
-0.5724040853000167,42.74635098316404,42.70059349260337,42.860294335470876
-0.5701362238441947,42.748052226926355,42.70229473636568,42.86199557923319
-0.5678801435399705,42.74974463301888,42.7039871424582,42.86368798532571
-0.5656357226175183,42.75142829278766,42.70567080222698,42.86537164509449
-0.5634028411852263,42.75310329616977,42.707345805609094,42.8670466484766
-0.5611813811912683,42.75476973172219,42.70901224116152,42.868713084029025
-0.5589712263861514,42.75642768664986,42.71067019608918,42.87037103895669
-0.5567722622862131,42.75807724683307,42.71231975627239,42.8720205991399
-0.5545843761380377,42.75971849685418,42.7139610062935,42.87366184916101
-0.5524074568837631,42.761351520023595,42.71559402946292,42.87529487233043
-0.5502413951272555,42.7629763984052,42.717218907844526,42.876919750712034
-0.5480860831011206,42.764593212841056,42.71883572228038,42.87853656514789
-0.5459414146345314,42.76620204297556,42.72044455241488,42.88014539528239
-0.5438072851218455,42.76780296727898,42.72204547671831,42.881746319585815
-0.5416835914919901,42.76939606307043,42.723638572509756,42.883339415377264
-0.5395702321785909,42.77098140654025,42.725223915979576,42.884924758847085
-0.5374671070908266,42.7725590727719,42.72680158221122,42.88650242507873
-0.5353741175849828,42.774129135763296,42.72837164520262,42.88807248807013
-0.5332911664366903,42.77569166844762,42.729934177886946,42.889635020754454
-0.5312181578138251,42.77724674271364,42.73148925215297,42.89119009502048
-0.5291549972500517,42.778794429425616,42.73303693886494,42.89273778173245
-0.5271015916189928,42.78033479844259,42.734577307881914,42.89427815074942
-0.5250578491090067,42.78186791863737,42.73611042807669,42.8958112709442
-0.5230236791985534,42.78339385791499,42.73763636735431,42.89733721022182
-0.520998992632139,42.78491268323075,42.739155192670076,42.898856035537584
-0.5189837013968135,42.78642446060787,42.740666970047194,42.9003678129147
-0.5169777186992148,42.78792925515466,42.742171764593984,42.90187260746149
-0.5149809589431394,42.789427131081396,42.74366964052072,42.90337048338823
-0.512993337707626,42.79091815171675,42.74516066115608,42.904861504023586
-0.5110147717255381,42.792402379523836,42.74664488896316,42.90634573183067
-0.5090451788626337,42.79387987611592,42.74812238555525,42.90782322842276
-0.5070844780971057,42.7953507022718,42.74959321171112,42.90929405457863
-0.5051325894995836,42.79681491795073,42.75105742739005,42.91075827025756
-0.5031894342135815,42.79827258230718,42.7525150917465,42.91221593461401
-0.5012549344363818,42.7997237537051,42.75396626314443,42.913667106011935
-0.4993290134003434,42.801168489732014,42.75541099917134,42.91511184203885
-0.4974115953546216,42.80260684721265,42.756849356651976,42.916550199519484
-0.4955026055472905,42.804038882222414,42.75828139166174,42.91798223452925
-0.49360197020785634,42.80546465010049,42.759707159539815,42.91940800240732
-0.4917096165301515,42.806884205462666,42.76112671490199,42.9208275577695
-0.4898254726556,42.80829760221389,42.762540111653216,42.922240954520724
-0.48794946765684466,42.80970489356055,42.763947402999875,42.92364824586738
-0.4860815315217253,42.811106132022495,42.76534864146182,42.92504948432933
-0.4842215951376015,42.81250136944481,42.766743878884135,42.92644472175164
-0.48236959027600806,42.813890657009296,42.76813316644862,42.92783400931613
-0.4805254495776377,42.815274045245765,42.76951655468509,42.9292173975526
-0.47868910653764046,42.81665158404305,42.770894093482376,42.930594936349884
-0.4768604954912324,42.818023322659805,42.77226583209913,42.93196667496664
-0.4750395515996066,42.81938930973507,42.7736318191744,42.933332662041906
-0.4732262108361383,42.820749593298636,42.77499210273796,42.93469294560547
-0.471420409972876,42.82210422078115,42.776346730220475,42.93604757308798
-0.469622086567313,42.823453239024076,42.7776957484634,42.93739659133091
-0.46783117894943216,42.824796694289375,42.7790392037287,42.93874004659621
-0.46604762620901485,42.82613463226905,42.78037714170838,42.940077984575886
-0.46427136818321185,42.827467098094466,42.78170960753379,42.9414104504013
-0.4625023454443652,42.82879413634547,42.7830366457848,42.942737488652305
-0.4607404992880786,42.830115791059356,42.78435830049868,42.94405914336619
-0.45898577172152805,42.831432105739644,42.78567461517897,42.94537545804648
-0.457238105452008,42.83274312336464,42.78698563280396,42.94668647567147
-0.4554974438757067,42.83404888639587,42.788291395835195,42.9479922387027
-0.4537637310667062,42.83534943678636,42.789591946225684,42.94929278909319
-0.4520369117662002,42.836644815988684,42.79088732542801,42.95058816829552
-0.4503169313719264,42.83793506496291,42.79217757440224,42.95187841726975
-0.4486037359278063,42.839220224184366,42.79346273362369,42.9531635764912
-0.4468972721137891,42.84050033365126,42.79474284309059,42.9544436859581
-0.44519748723589475,42.84177543289216,42.79601794233149,42.955718785199
-0.4435043292164498,42.84304556097331,42.797288070412634,42.95698891328014
-0.4418177465845141,42.84431075650579,42.79855326594512,42.958254108812625
-0.4401376884664925,42.84557105765261,42.79981356709194,42.959514409959446
-0.43846410457692636,42.84682650213558,42.8010690115749,42.96076985444241
-0.4367969452094633,42.84807712724206,42.80231963668138,42.96202047954889
-0.43513616122799886,42.849322969831675,42.803565479271,42.96326632213851
-0.4334817040579864,42.850564066342784,42.80480657578211,42.96450741864962
-0.4318335256779132,42.85180045279888,42.8060429622382,42.96574380510571
-0.4301915786109365,42.85303216481487,42.807274674254195,42.9669755171217
-0.4285558159166773,42.85425923760324,42.80850174704256,42.96820258991007
