log Ni_mass,log Peak_Flux_(erg/s),log Peak_Flux_(erg/s)_lower_limit,log Peak_Flux_(erg/s)_upper_limit
-inf,,,
-2.853437452547744,40.58905828935312,40.543300798792444,40.70300164165995
-2.552407456883763,40.86952525925445,40.82376776869378,40.983468611561285
-2.376316197828082,41.03358791933762,40.987830428776945,41.14753127164445
-2.251377461219782,41.149992229155785,41.10423473859511,41.26393558146262
-2.1544674482117254,41.240282426454954,41.19452493589428,41.35422577876179
-2.0752862021641008,41.31405488923895,41.26829739867828,41.42799824154579
-2.0083394125334877,41.376428617780206,41.33067112721953,41.49037197008704
-1.9503474655558006,41.43045919905712,41.38470170849644,41.54440255136395
-1.8991949431084194,41.47811754932212,41.43236005876145,41.592060901628955
-1.8534374525477444,41.52074939635629,41.47499190579561,41.63469274866312
-1.8120447673895193,41.559314593013184,41.51355710245251,41.67325794532002
-1.7742562065001195,41.594521859140286,41.54876436857961,41.70846521144712
-1.7394941002409077,41.626909404402696,41.58115191384202,41.74085275670953
-1.7073094168695062,41.65689558768154,41.611138097120865,41.77083893998837
-1.677346193492063,41.684812056439455,41.63905456587878,41.79875540874629
-1.6493174698918196,41.71092616895845,41.66516867839778,41.824869521265285
-1.6229885311694703,41.7354566070229,41.68969911646222,41.84939995932973
-1.5981649474444382,41.758584519223454,41.71282702866278,41.87252787153029
-1.5746838515949153,41.78046164740915,41.73470415684847,41.89440499971598
-1.5524074568837631,41.80121636625762,41.755458875696945,41.91515971856445
-1.531218157813825,41.82095824776471,41.77520075720403,41.93490160007154
-1.511014771725538,41.83978156291452,41.79402407235384,41.95372491522135
-1.4917096165301513,41.85776800432937,41.8120105137687,41.971711356636206
-1.4732262108361383,41.87498882904162,41.829231338480945,41.98893218134845
-1.4554974438757067,41.89150656355678,41.84574907299611,42.005449915863615
-1.4384641045769264,41.90737637430403,41.861618883743354,42.02131972661086
-1.422073688388757,41.92264717930662,41.87688968874595,42.036590531613456
-1.4062794212055252,41.93736255758287,41.8916050670222,42.051305909889706
-1.3910394546487883,41.95156149889481,41.90580400833414,42.065504851201645
-1.3763161978280818,41.96527902634079,41.91952153578011,42.07922237864762
-1.3620757587134715,41.978546716823686,41.93278922626301,42.09249006913052
-1.3482874742278383,41.991393138859785,41.94563564829911,42.10533649116662
-1.3349235126698569,42.003844222997685,41.95808673243701,42.11778757530452
-1.3219585355054893,42.01592357692423,41.970166086363555,42.12986692923106
-1.3093694081974687,42.02765275488204,41.981895264321366,42.141596107188874
-1.2971349517804571,42.03905148912479,41.99329399856411,42.15299484143162
-1.2852357284807494,42.05013788965337,42.004380399092696,42.164081241960204
-1.273653855930934,42.06092861731048,42.015171126749806,42.174871969617314
-1.262372845521245,42.0714390343872,42.02568154382652,42.18538238669403
-1.2513774612197819,42.08168333615895,42.03592584559828,42.19562668846579
-1.240653595828009,42.09167466617716,42.04591717561649,42.205618018483996
-1.2301881621498438,42.10142521766604,42.055667727105366,42.215368569972874
-1.2199689969681577,42.11094632298681,42.06518883242614,42.224889675293646
-1.209984776061557,42.12024853281585,42.074491042255175,42.234191885122684
-1.2002249387724007,42.129341686423956,42.08358419586328,42.24328503873079
-1.1906796208661703,42.138234974230706,42.09247748367003,42.25217832653754
-1.1813395946120269,42.14693699363087,42.10117950307019,42.2608803459377
-1.1721962151721572,42.15545579894295,42.10969830838228,42.269399151249786
-1.1632413725192305,42.163798946207294,42.11804145564662,42.27774229851413
-1.1544674482117256,42.171973533458115,42.12621604289744,42.28591688576495
-1.145867276449808,42.1799862370074,42.13422874644672,42.29392958931423
-1.1374341089129452,42.18784334420536,42.14208585364469,42.301786696512195
-1.1291615829469552,42.19555078308032,42.14979329251965,42.309494135387155
-1.1210436927247758,42.203114149207956,42.15735665864728,42.31705750151479
-1.1130747630535005,42.21053873011502,42.164781239554344,42.32448208242185
-1.105249425541544,42.217829527484206,42.17207203692353,42.33177287979104
-1.097562596875253,42.22499127739365,42.179233786832974,42.33893462970048
-1.090009458984807,42.232028468796145,42.18627097823547,42.34597182110298
-1.0825854409056002,42.238945360418775,42.1931878698581,42.35288871272561
-1.0752862021641008,42.24574599624212,42.199988505681446,42.359689348548955
-1.0681076175369772,42.25243421970008,42.2066767291394,42.36637757200691
-1.0610457630494905,42.25901368672502,42.213256196164345,42.37295703903185
-1.0540969030941625,42.26548787774921,42.219730387188534,42.37943123005604
-1.047257478563857,42.27186010876112,42.22610261820044,42.38580346106795
-1.0405240959048887,42.27813354150452,42.23237605094385,42.39207689381136
-1.0338935170058756,42.28431119289902,42.23855370233834,42.39825454520585
-1.027362649846918,42.29039594375204,42.244638453191364,42.40433929605887
-1.020928539841508,42.29639054682556,42.25063305626489,42.4103338991324
-1.014588361810489,42.30229763431388,42.256540143753206,42.416240986620714
-1.0083394125334875,42.308119724783374,42.2623622342227,42.42206307709021
-1.0021791038286691,42.31385922962005,42.268101739059375,42.42780258192688
-0.9961049561164759,42.31951845902612,42.273760968465446,42.433461811332954
-0.9901145924272884,42.32509962760305,42.27934213704238,42.439042979909885
-0.9842057328167682,42.330604859554704,42.28484736899403,42.44454821186154
-0.9783761891560443,42.33603619354129,42.290278702980615,42.44997954584812
-0.9726238602669529,42.341395587211814,42.29563809665114,42.45533893951865
-0.9669467273752624,42.34668492144027,42.3009274308796,42.460628273747105
-0.9613428498572639,42.35190600428853,42.306148513727855,42.46584935659536
-0.9558103612573029,42.357060574716705,42.31130308415603,42.47100392702354
-0.9503474655558007,42.362150306060286,42.31639281549961,42.47609365836712
-0.9449524336690945,42.367176809291124,42.32141931873045,42.48112016159796
-0.9396236001640277,42.372141636078496,42.32638414551782,42.48608498838533
-0.9343593601716704,42.377046281664505,42.33128879110383,42.49098963397134
-0.9291581664858627,42.381892187567374,42.3361346970067,42.49583553987421
-0.9240185268334515,42.386680744124725,42.34092325356405,42.50062409643156
-0.9189390013041766,42.391413292888146,42.34565580232747,42.50535664519498
-0.9139181999291258,42.39609112887931,42.35033363831864,42.510034481186146
-0.9089547803975757,42.40071550271718,42.35495801215651,42.51465885502402
-0.9040474459028315,42.405287622625025,42.35953013206435,42.51923097493186
-0.8991949431084194,42.40980865632529,42.364051165764614,42.52375200863212
-0.8943960602266507,42.41427973282978,42.36852224226911,42.52822308513662
-0.889649625202189,42.41870194413204,42.372944453571364,42.53264529643887
-0.8849545039938093,42.42307634680819,42.37731885624751,42.53701969911502
-0.8803095989480456,42.4274039635322,42.381646472971525,42.54134731583903
-0.8757138472588966,42.431685784510975,42.3859282939503,42.54562913681781
-0.871166219508176,42.435922768844286,42.39016527828361,42.54986612115112
-0.8666657182814995,42.44011584581423,42.39435835525356,42.55405919812107
-0.8622113768552494,42.44426591610863,42.39850842554795,42.55820926841546
-0.8578022579501944,42.448373852982186,42.40261636242151,42.56231720528902
-0.8534374525477444,42.45244050335945,42.40668301279877,42.56638385566628
-0.8491160787651018,42.45646668888278,42.4107091983221,42.57041004118961
-0.8448372807858268,42.46045320690873,42.41469571634806,42.574396559215565
-0.840600227842572,42.46440083145586,42.41864334089519,42.578344183762695
-0.836404113248964,42.468310314106695,42.42255282354602,42.58225366641353
-0.8322481534778062,42.47218238486654,42.42642489430587,42.586125737173376
-0.8281315872829741,42.476017752981654,42.43026026242098,42.58996110528849
-0.8240536748625347,42.47981710771892,42.43405961715825,42.593760460025756
-0.8200136970607946,42.48358111910929,42.437823628548614,42.59752447141612
-0.8160109546071207,42.487310438657005,42.44155294809633,42.60125379096384
-0.8120447673895193,42.49100570001635,42.44524820945568,42.604949052323185
-0.8081144737610868,42.49466751963787,42.4489100290772,42.608610871944705
-0.8042194298775627,42.49829649738554,42.452539006824864,42.61223984969237
-0.8003590090643246,42.50189321712652,42.45613572656585,42.615836569433355
-0.7965326012112717,42.50545824729498,42.45970075673431,42.619401599601815
-0.7927396121941327,42.50899214143121,42.46323465087053,42.62293549373804
-0.7889794633208258,42.51249543869748,42.4667379481368,42.62643879100431
-0.7852515908015827,42.5159686643717,42.47021117381102,42.62991201667853
-0.7815554452416189,42.51941233032011,42.47365483975943,42.63335568262694
-0.7778904911552136,42.522826935449984,42.47706944488931,42.63677028775682
-0.7742562065001195,42.526212966143454,42.48045547558278,42.64015631845029
-0.7706520822312942,42.52957089667325,42.483813406112574,42.64351424898008
-0.7670776218729961,42.53290118960141,42.487143699040736,42.646844541908244
-0.7635323411083464,42.536204296161664,42.49044680560099,42.6501476484685
-0.7600157673855092,42.53948065662635,42.49372316606568,42.653424008933186
-0.7565274395396879,42.542730700658616,42.49697321009794,42.65667405296545
-0.7530669074301813,42.54595484765054,42.50019735708987,42.659898199957375
-0.7496337315917875,42.549153507047954,42.50339601648728,42.66309685935479
-0.746227482899876,42.55232707866245,42.506569588101776,42.666270430969284
-0.7428477422484954,42.55547595297132,42.509718462410646,42.669419305278154
-0.7394941002409076,42.55860051140586,42.51284302084518,42.67254386371269
-0.7361661568919801,42.56170112662866,42.51594363606799,42.675644478935496
-0.7328635213418945,42.56477816280035,42.51902067223968,42.678721515107185
-0.7295858115806585,42.567831975836235,42.52207448527556,42.68177532814307
-0.7263326541829367,42.57086291365337,42.5251054230927,42.684806265960205
-0.7231036840527382,42.57387131640846,42.52811382584778,42.68781466871529
-0.7198985441775267,42.576857516726896,42.53110002616622,42.69080086903373
-0.7167168853913375,42.579821839923504,42.53406434936283,42.69376519223034
-0.7135583661465078,42.582764604215214,42.53700711365454,42.69670795652205
-0.7104226522936492,42.58568612092603,42.53992863036535,42.69962947323286
-0.7073094168695063,42.58858669468471,42.54282920412403,42.70253004699154
-0.7042183398923644,42.591466623615375,42.5457091330547,42.70540997592221
-0.7011491081646879,42.59432619952138,42.54856870896071,42.70826955182822
-0.6981014150826825,42.59716570806276,42.551408217502086,42.711109060369594
-0.6950749604524946,42.599985428927454,42.55422793836678,42.71392878123429
-0.6920694503127695,42.602785635996646,42.55702814543597,42.71672898830348
-0.6890845967633072,42.605566597504385,42.55980910694371,42.71950994981122
-0.6861201177995682,42.6083285761918,42.56257108563113,42.722271928498635
-0.6831757371527869,42.61107182945604,42.56531433889536,42.72501518176287
-0.6802511841354703,42.61379660949423,42.568039118933555,42.72773996180106
-0.677346193492063,42.61650316344262,42.57074567288195,42.730446515749456
-0.6744605052545749,42.61919173351107,42.5734342429504,42.733135085817906
-0.6715938646029718,42.62186255711315,42.57610506655247,42.73580590941998
-0.6687460217301455,42.6245158669919,42.578758376431225,42.73845921929873
-0.6659167317112813,42.627151891341605,42.58139440078093,42.74109524364844
-0.6631057543774528,42.62977085392552,42.584013363364846,42.743714206232355
-0.6603128541932827,42.63237297418986,42.58661548362919,42.7463163264967
-0.6575378001385106,42.63495846737415,42.58920097681347,42.74890181968098
-0.6547803655933216,42.63752754461804,42.59177005405736,42.75147089692487
-0.6520403282272929,42.64008041306483,42.594322922504155,42.75402376537166
-0.6493174698918195,42.64261727596162,42.596859785400945,42.75656062826845
-0.6466115765158946,42.64513833275647,42.59938084219579,42.7590816850633
-0.6439224380051134,42.64764377919246,42.60188628863178,42.76158713149929
-0.6412498481437865,42.65013380739892,42.60437631683825,42.76407715970576
-0.6385936045000464,42.65260860597983,42.606851115419154,42.76655195828666
-0.635953508333838,42.65506836009952,42.609310869538845,42.76901171240635
-0.6333293645076892,42.65751325156584,42.61175576100516,42.77145660387267
-0.630720981400161,42.65994345891078,42.61418596835011,42.773886811217615
-0.6281281708218814,42.66235915746871,42.61660166690803,42.77630250977554
-0.6255507479340707,42.664760519452265,42.61900302889159,42.7787038717591
-0.6229885311694704,42.66714771402606,42.62139022346538,42.78109106633289
-0.6204413421555904,42.66952090737815,42.623763416817475,42.78346425968498
-0.6179090056401955,42.67188026278948,42.626122772228804,42.78582361509631
-0.6153913494189489,42.674225940701305,42.62846845014063,42.78816929300814
-0.6128882042651446,42.676558098780646,42.63080060821997,42.79050145108748
-0.6103994038614499,42.678876891983876,42.6331194014232,42.79282024429071
-0.6079247847335945,42.68118247261852,42.63542498205784,42.79512582492535
-0.6054641861859377,42.683474990403276,42.6377174998426,42.79741834271011
-0.6030174502388503,42.68575459252636,42.63999710196568,42.79969794483319
-0.6005844215678511,42.68802142370222,42.64226393314154,42.80196477600905
-0.5981649474444383,42.69027562622662,42.64451813566595,42.804218978533456
-0.5957588776785598,42.69251734003032,42.646759849469646,42.806460692337154
-0.5933660645626695,42.694746702731116,42.64898921217044,42.80869005503795
-0.5909863628173149,42.69696384968458,42.651206359123904,42.81090720199141
-0.5886196295382078,42.69916891403337,42.6534114234727,42.813112266340205
-0.5862657241447305,42.701362026755206,42.65560453619453,42.81530537906204
-0.583924508329828,42.70354331670953,42.65778582614885,42.81748666901636
-0.5815958460112454,42.70571291068296,42.65995542012229,42.819656262989795
-0.5792796032840645,42.70787093343353,42.66211344287286,42.821814285740366
-0.5769756483745002,42.71001750773372,42.66426001717304,42.82396086004055
-0.5746838515949153,42.71215275441231,42.66639526385163,42.82609610671914
-0.5724040853000167,42.71427679239532,42.66851930183464,42.82822014470215
-0.5701362238441947,42.71638973874562,42.670632248184944,42.83033309105245
-0.5678801435399705,42.71849170870175,42.67273421814107,42.83243506100858
-0.5656357226175183,42.72058281571557,42.67482532515489,42.8345261680224
-0.5634028411852263,42.72266317148903,42.67690568092836,42.836606523795865
-0.5611813811912683,42.72473288600996,42.678975395449285,42.83867623831679
-0.5589712263861514,42.72679206758699,42.68103457702632,42.840735419893825
-0.5567722622862131,42.72884082288352,42.683083332322845,42.84278417519035
-0.5545843761380377,42.730879256950914,42.68512176639024,42.84482260925775
-0.5524074568837631,42.73290747326078,42.687149982700106,42.846850825567614
-0.5502413951272555,42.73492557373654,42.689168083175865,42.84886892604337
-0.5480860831011206,42.73693365878411,42.691176168223436,42.850877011090944
-0.5459414146345314,42.7389318273219,42.693174336761224,42.85287517962873
-0.5438072851218455,42.740920176810064,42.69516268624939,42.8548635291169
-0.5416835914919901,42.742898803279,42.69714131271832,42.85684215558583
-0.5395702321785909,42.744867801357195,42.69911031079652,42.85881115366403
-0.5374671070908266,42.74682726429838,42.70106977373771,42.860770616605215
-0.5353741175849828,42.74877728400803,42.70301979344735,42.86272063631486
-0.5332911664366903,42.75071795106921,42.70496046050854,42.864661303376046
-0.5312181578138251,42.752649354767875,42.7068918642072,42.86659270707471
-0.5291549972500517,42.75457158311746,42.708814092556786,42.868514935424294
-0.5271015916189928,42.75648472288299,42.71072723232231,42.87042807518982
-0.5250578491090067,42.75838885960455,42.712631369043876,42.872332211911385
-0.5230236791985534,42.760284077620256,42.71452658705958,42.87422742992709
-0.520998992632139,42.76217046008865,42.71641296952797,42.87611381239548
-0.5189837013968135,42.76404808901062,42.71829059844995,42.877991441317455
-0.5169777186992148,42.76591704525078,42.720159554690106,42.879860397557614
-0.5149809589431394,42.76777740855834,42.72201991799766,42.88172076086517
-0.512993337707626,42.76962925758755,42.72387176702688,42.88357260989439
-0.5110147717255381,42.771472669917685,42.72571517935701,42.88541602222452
-0.5090451788626337,42.77330772207247,42.72755023151179,42.8872510743793
-0.5070844780971057,42.775134489539205,42.72937699897853,42.88907784184604
-0.5051325894995836,42.776953046787376,42.7311955562267,42.89089639909421
-0.5031894342135815,42.77876346728687,42.7330059767262,42.892706819593705
-0.5012549344363818,42.78056582352579,42.734808332965116,42.894509175832624
-0.4993290134003434,42.782360187027855,42.73660269646718,42.89630353933469
-0.4974115953546216,42.78414662836946,42.73838913780879,42.898089980676296
-0.4955026055472905,42.785925217196315,42.74016772663564,42.89986856950315
-0.49360197020785634,42.78769602223972,42.74193853167905,42.901639374546555
-0.4917096165301515,42.78945911133254,42.743701620771866,42.903402463639374
-0.4898254726556,42.79121455142478,42.745457060864105,42.90515790373161
-0.48794946765684466,42.79296240859881,42.747204918038136,42.906905760905644
-0.4860815315217253,42.79470274808435,42.74894525752367,42.90864610039118
-0.4842215951376015,42.79643563427303,42.750678143712356,42.910378986579865
-0.48236959027600806,42.7981611307327,42.75240364017203,42.912104483039535
-0.4805254495776377,42.79987930022144,42.75412180966077,42.913822652528275
-0.47868910653764046,42.80159020470121,42.75583271414054,42.91553355700805
-0.4768604954912324,42.80329390535132,42.75753641479064,42.91723725765815
-0.4750395515996066,42.80499046258149,42.75923297202082,42.91893381488833
-0.4732262108361383,42.80667993604479,42.76092244548411,42.92062328835162
-0.471420409972876,42.8083623846501,42.76260489408943,42.922305736956936
-0.469622086567313,42.81003786657458,42.76428037601391,42.923981218881416
-0.46783117894943216,42.81170643927563,42.76594894871496,42.925649791582465
-0.46604762620901485,42.813368159502744,42.76761066894207,42.92731151180958
-0.46427136818321185,42.81502308330913,42.769265592748454,42.92896643561596
-0.4625023454443652,42.816671266063,42.77091377550232,42.93061461836983
-0.4607404992880786,42.81831276245872,42.77255527189804,42.93225611476555
-0.45898577172152805,42.819947626527686,42.77419013596701,42.93389097883452
-0.457238105452008,42.821575911649006,42.77581842108833,42.93551926395584
-0.4554974438757067,42.82319767055995,42.777440179999275,42.93714102286678
-0.4537637310667062,42.8248129553662,42.77905546480552,42.93875630767303
-0.4520369117662002,42.826421817551875,42.7806643269912,42.94036516985871
-0.4503169313719264,42.828024307989445,42.78226681742877,42.94196766029628
-0.4486037359278063,42.82962047694929,42.78386298638861,42.94356382925612
-0.4468972721137891,42.83121037410923,42.78545288354856,42.945153726416066
-0.44519748723589475,42.832794048563784,42.78703655800311,42.94673740087062
-0.4435043292164498,42.83437154883325,42.78861405827258,42.94831490114009
-0.4418177465845141,42.835942922872654,42.79018543231198,42.94988627517949
-0.4401376884664925,42.83750821808046,42.79175072751978,42.95145157038729
-0.43846410457692636,42.83906748130719,42.793309990746515,42.95301083361402
-0.4367969452094633,42.840620758863814,42.79486326830314,42.95456411117065
-0.43513616122799886,42.842168096529996,42.79641060596932,42.95611144883683
-0.4334817040579864,42.84370953956222,42.797952049001545,42.95765289186905
-0.4318335256779132,42.845245132701685,42.79948764214101,42.95918848500852
-0.4301915786109365,42.846774920182156,42.80101742962148,42.96071827248899
-0.4285558159166773,42.84829894573757,42.80254145517689,42.9622422980444
